t,phi,theta,psi,phi_b,theta_b,psi_b,tau_x,tau_y,tau_z
0,0,0,0,0,0,0,1.36844016915284,-0,-0
0.01,1.81761618365146e-05,0,0,1.81761618365146e-05,0,0,1.34651903170199,-0,-0
0.02,7.20746624676799e-05,0,0,7.20746624676799e-05,0,0,1.3249777433481,-0,-0
0.03,0.000160766056047644,0,0,0.000160766056047644,0,0,1.30380947668704,-0,-0
0.04,0.000283340137706879,0,0,0.000283340137706879,0,0,1.28300752935273,-0,-0
0.05,0.000438904925151747,0,0,0.000438904925151747,0,0,1.26256531770631,-0,-0
0.06,0.000626586658664499,0,0,0.000626586658664499,0,0,1.24247637683614,-0,-0
0.07,0.000845524486698143,0,0,0.000845524486698143,0,0,1.22273432761293,-0,-0
0.08,0.00109488067764493,0,0,0.00109488067764493,0,0,1.20333293998292,-0,-0
0.09,0.00137384101157278,0,0,0.00137384101157278,0,0,1.18426613537229,-0,-0
0.1,0.00168160619247607,0,0,0.00168160619247606,0,0,1.16552793344607,-0,-0
0.11,0.00201739184827567,0,0,0.00201739184827567,0,0,1.14711245210812,-0,-0
0.12,0.00238042853081894,0,0,0.00238042853081894,0,0,1.12901390750111,-0,-0
0.13,0.00276996171587971,0,0,0.00276996171587971,0,0,1.11122661400655,-0,-0
0.14,0.00318525180315832,0,0,0.00318525180315832,0,0,1.09374498424478,-0,-0
0.15,0.00362557411628155,0,0,0.00362557411628155,0,0,1.07656352907497,-0,-0
0.16,0.00409021890280271,0,0,0.00409021890280271,0,0,1.0596768575951,-0,-0
0.17,0.00457849133420154,0,0,0.00457849133420154,0,0,1.043079677142,-0,-0
0.18,0.00508971088361804,0,0,0.00508971088361804,0,0,1.02676678929624,-0,-0
0.19,0.00562321473737263,0,0,0.00562321473737263,0,0,1.01073311090013,-0,-0
0.2,0.00617835873267327,0,0,0.00617835873267327,0,0,0.99497368037964,-0,-0
0.21,0.0067545108670266,0,0,0.0067545108670266,0,0,0.979483617141093,-0,-0
0.22,0.00735105106960074,0,0,0.00735105106960074,0,0,0.964258120131417,-0,-0
0.23,0.00796737120122536,0,0,0.00796737120122536,0,0,0.949292467838138,-0,-0
0.24,0.00860287505439165,0,0,0.00860287505439165,0,0,0.934582018289387,-0,-0
0.25,0.00925697835325234,0,0,0.00925697835325234,0,0,0.920122209053895,-0,-0
0.26,0.00992910875362166,0,0,0.00992910875362166,0,0,0.905908557240993,-0,-0
0.27,0.0106187058429754,0,0,0.0106187058429754,0,0,0.891936659500615,-0,-0
0.28,0.0113252211404508,0,0,0.0113252211404508,0,0,0.878202192023297,-0,-0
0.29,0.0120481178955096,0,0,0.0120481178955096,0,0,0.86470090926021,-0,-0
0.3,0.0127868707594588,0,0,0.0127868707594588,0,0,0.851428641543366,-0,-0
0.31,0.0135409719041881,0,0,0.0135409719041881,0,0,0.838381333721065,-0,-0
0.32,0.0143099245664611,0,0,0.0143099245664611,0,0,0.825555004776648,-0,-0
0.33,0.0150932414160856,0,0,0.0150932414160856,0,0,0.812945737540848,-0,-0
0.34,0.0158904445559141,0,0,0.0158904445559141,0,0,0.800549678691784,-0,-0
0.35,0.0167010655218434,0,0,0.0167010655218434,0,0,0.788363038754968,-0,-0
0.36,0.0175246452828152,0,0,0.0175246452828153,0,0,0.7763820921033,-0,-0
0.37,0.0183607342408155,0,0,0.0183607342408155,0,0,0.764603176957073,-0,-0
0.38,0.0192088922308749,0,0,0.0192088922308749,0,0,0.753022695383966,-0,-0
0.39,0.0200686885210686,0,0,0.0200686885210686,0,0,0.741637113299051,-0,-0
0.4,0.0209397018125161,0,0,0.0209397018125161,0,0,0.730442960464789,-0,-0
0.41,0.0218215199651736,0,0,0.0218215199651736,0,0,0.719436828728895,-0,-0
0.42,0.0227137401961835,0,0,0.0227137401961835,0,0,0.70861537291775,-0,-0
0.43,0.0236159741058752,0,0,0.0236159741058752,0,0,0.697975342908558,-0,-0
0.44,0.0245278417158013,0,0,0.0245278417158013,0,0,0.687513546067245,-0,-0
0.45,0.0254489704078177,0,0,0.0254489704078177,0,0,0.67722684050655,-0,-0
0.46,0.0263789949240835,0,0,0.0263789949240835,0,0,0.667112135086035,-0,-0
0.47,0.0273175573670606,0,0,0.0273175573670606,0,0,0.657166389412078,-0,-0
0.48,0.0282643071995142,0,0,0.0282643071995142,0,0,0.647386613837874,-0,-0
0.49,0.0292189012445127,0,0,0.0292189012445127,0,0,0.637769869463438,-0,-0
0.5,0.0301810036854274,0,0,0.0301810036854274,0,0,0.628313268135605,-0,-0
0.51,0.0311502860659329,0,0,0.0311502860659329,0,0,0.619013972448025,-0,-0
0.52,0.0321264272900066,0,0,0.0321264272900066,0,0,0.609869195741169,-0,-0
0.53,0.0331091136219294,0,0,0.0331091136219294,0,0,0.600876202102323,-0,-0
0.54,0.0340980378163291,0,0,0.0340980378163291,0,0,0.592032300606375,-0,-0
0.55,0.0350929031965985,0,0,0.0350929031965985,0,0,0.583334871145553,-0,-0
0.56,0.0360934222477074,0,0,0.0360934222477074,0,0,0.574781355914917,-0,-0
0.57,0.0370993131170882,0,0,0.0370993131170882,0,0,0.566369237043958,-0,-0
0.58,0.0381102996092219,0,0,0.0381102996092219,0,0,0.558096036561686,-0,-0
0.59,0.0391261111856383,0,0,0.0391261111856383,0,0,0.549959316396627,-0,-0
0.6,0.0401464829649157,0,0,0.0401464829649157,0,0,0.541956678376823,-0,-0
0.61,0.041171155722681,0,0,0.0411711557226809,0,0,0.534085764229835,-0,-0
0.62,0.0421998758916096,0,0,0.0421998758916096,0,0,0.526344255582742,-0,-0
0.63,0.0432323955614259,0,0,0.0432323955614259,0,0,0.518729873962137,-0,-0
0.64,0.0442684724789025,0,0,0.0442684724789025,0,0,0.511240380794134,-0,-0
0.65,0.045307870047861,0,0,0.045307870047861,0,0,0.503873577404361,-0,-0
0.66,0.0463503573291713,0,0,0.0463503573291713,0,0,0.496627305017967,-0,-0
0.67,0.0473957083112538,0,0,0.0473957083112538,0,0,0.489499439857429,-0,-0
0.68,0.0484437051756352,0,0,0.0484437051756352,0,0,0.482487913925346,-0,-0
0.69,0.0494941377733533,0,0,0.0494941377733533,0,0,0.475590712158157,-0,-0
0.7,0.0505468002469445,0,0,0.0505468002469445,0,0,0.468805850616078,-0,-0
0.71,0.0516014910110127,0,0,0.0516014910110127,0,0,0.462131376356328,-0,-0
0.72,0.0526580127522294,0,0,0.0526580127522294,0,0,0.455565367433129,-0,-0
0.73,0.0537161724293337,0,0,0.0537161724293337,0,0,0.449105932897704,-0,-0
0.74,0.0547757812731322,0,0,0.0547757812731322,0,0,0.442751212798283,-0,-0
0.75,0.0558366547864989,0,0,0.0558366547864989,0,0,0.436499378180092,-0,-0
0.76,0.0568986127443756,0,0,0.0568986127443756,0,0,0.430348631085365,-0,-0
0.77,0.0579614791937714,0,0,0.0579614791937714,0,0,0.424297204553335,-0,-0
0.78,0.0590250824537631,0,0,0.0590250824537631,0,0,0.41834336262024,-0,-0
0.79,0.0600892551154951,0,0,0.0600892551154951,0,0,0.41248540031932,-0,-0
0.8,0.0611538339963517,0,0,0.0611538339963517,0,0,0.406721643375187,-0,-0
0.81,0.0622186595447499,0,0,0.0622186595447499,0,0,0.401050443918815,-0,-0
0.82,0.0632835799349361,0,0,0.0632835799349361,0,0,0.395470207299815,-0,-0
0.83,0.064348447983264,0,0,0.064348447983264,0,0,0.389979372358163,-0,-0
0.84,0.0654131196653272,0,0,0.0654131196653272,0,0,0.384576401695274,-0,-0
0.85,0.0664774541159598,0,0,0.0664774541159598,0,0,0.379259781673997,-0,-0
0.86,0.0675413136292359,0,0,0.0675413136292359,0,0,0.374028022418619,-0,-0
0.87,0.06860456365847,0,0,0.06860456365847,0,0,0.368879657814864,-0,-0
0.88,0.0696670728162166,0,0,0.0696670728162166,0,0,0.363813245509892,-0,-0
0.89,0.0707287128742706,0,0,0.0707287128742706,0,0,0.358827366912302,-0,-0
0.9,0.071789358763667,0,0,0.071789358763667,0,0,0.353920627192127,-0,-0
0.91,0.072848888574681,0,0,0.072848888574681,0,0,0.349091655280838,-0,-0
0.92,0.0739071835568282,0,0,0.0739071835568282,0,0,0.344339103871343,-0,-0
0.93,0.074964128118864,0,0,0.074964128118864,0,0,0.339661649417988,-0,-0
0.94,0.0760196098287844,0,0,0.0760196098287844,0,0,0.335057992136554,-0,-0
0.95,0.0770735189824323,0,0,0.0770735189824323,0,0,0.33052685298934,-0,-0
0.96,0.0781257502294628,0,0,0.0781257502294628,0,0,0.326066983992383,-0,-0
0.97,0.0791762037407379,0,0,0.0791762037407379,0,0,0.321677176613099,-0,-0
0.98,0.0802247820733659,0,0,0.0802247820733659,0,0,0.317356240996999,-0,-0
0.99,0.0812713900616858,0,0,0.0812713900616858,0,0,0.313103005233334,-0,-0
1,0.0823159348172673,0,0,0.0823159348172673,0,0,0.308916315355089,-0,-0
1.01,0.0833583257289109,0,0,0.0833583257289109,0,0,0.304795035338991,-0,-0
1.02,0.0843984744626479,0,0,0.0843984744626478,0,0,0.300738047105505,-0,-0
1.03,0.0854362949617401,0,0,0.0854362949617401,0,0,0.296744250518833,-0,-0
1.04,0.0864717034466803,0,0,0.0864717034466803,0,0,0.292812563386919,-0,-0
1.05,0.0875046184151919,0,0,0.0875046184151919,0,0,0.288941921461441,-0,-0
1.06,0.0885349606422291,0,0,0.0885349606422291,0,0,0.285131278437818,-0,-0
1.07,0.0895626531799768,0,0,0.0895626531799768,0,0,0.281379605955208,-0,-0
1.08,0.0905876213578507,0,0,0.0905876213578507,0,0,0.277685893596507,-0,-0
1.09,0.0916097927824972,0,0,0.0916097927824972,0,0,0.274049148888348,-0,-0
1.1,0.0926290971664022,0,0,0.0926290971664022,0,0,0.270468396083867,-0,-0
1.11,0.0936454665637582,0,0,0.0936454665637582,0,0,0.266942677142427,-0,-0
1.12,0.0946588380073373,0,0,0.0946588380073373,0,0,0.263471070087942,-0,-0
1.13,0.0956691505716405,0,0,0.0956691505716405,0,0,0.260052669371618,-0,-0
1.14,0.0966763449203589,0,0,0.0966763449203589,0,0,0.25668658276644,-0,-0
1.15,0.0976803633063736,0,0,0.0976803633063736,0,0,0.253371931367168,-0,-0
1.16,0.0986811495717553,0,0,0.0986811495717553,0,0,0.250107849590341,-0,-0
1.17,0.0996786491477653,0,0,0.0996786491477653,0,0,0.246893485174274,-0,-0
1.18,0.100672809054854,0,0,0.100672809054854,0,0,0.243727999179057,-0,-0
1.19,0.101663577902663,0,0,0.101663577902663,0,0,0.24061056598656,-0,-0
1.2,0.102650905890022,0,0,0.102650905890022,0,0,0.237540373300427,-0,-0
1.21,0.103634744804953,0,0,0.103634744804953,0,0,0.23451662214608,-0,-0
1.22,0.104615048024665,0,0,0.104615048024665,0,0,0.231538526870718,-0,-0
1.23,0.10559177051556,0,0,0.10559177051556,0,0,0.228605315143317,-0,-0
1.24,0.106564868833229,0,0,0.106564868833229,0,0,0.22571622795463,-0,-0
1.25,0.107534301122451,0,0,0.107534301122451,0,0,0.222870519617184,-0,-0
1.26,0.108500027078187,0,0,0.108500027078187,0,0,0.220067457480515,-0,-0
1.27,0.109462007619763,0,0,0.109462007619763,0,0,0.21730631905448,-0,-0
1.28,0.110420207572998,0,0,0.110420207572998,0,0,0.214586410858854,-0,-0
1.29,0.111374593677661,0,0,0.111374593677661,0,0,0.211907055108407,-0,-0
1.3,0.112325133735989,0,0,0.112325133735989,0,0,0.209267583716508,-0,-0
1.31,0.113271796612683,0,0,0.113271796612683,0,0,0.206667338295128,-0,-0
1.32,0.114214552234911,0,0,0.114214552234911,0,0,0.204105670154841,-0,-0
1.33,0.115153371592306,0,0,0.115153371592306,0,0,0.201581940304821,-0,-0
1.34,0.116088226736969,0,0,0.116088226736969,0,0,0.199095519452843,-0,-0
1.35,0.117019090783465,0,0,0.117019090783465,0,0,0.196645788005287,-0,-0
1.36,0.117945937908826,0,0,0.117945937908826,0,0,0.19423213606713,-0,-0
1.37,0.11886874335255,0,0,0.11886874335255,0,0,0.191853963441954,-0,-0
1.38,0.119787483416601,0,0,0.119787483416601,0,0,0.189510679631941,-0,-0
1.39,0.12070213546541,0,0,0.12070213546541,0,0,0.187201703837876,-0,-0
1.4,0.121612677925871,0,0,0.121612677925872,0,0,0.184926464959144,-0,-0
1.41,0.122519090287349,0,0,0.122519090287349,0,0,0.182684401593733,-0,-0
1.42,0.123421353101669,0,0,0.123421353101669,0,0,0.18047496203823,-0,-0
1.43,0.124319447983128,0,0,0.124319447983128,0,0,0.178297604287828,-0,-0
1.44,0.12521335727694,0,0,0.12521335727694,0,0,0.176151793265111,-0,-0
1.45,0.126103065634302,0,0,0.126103065634302,0,0,0.174037011674146,-0,-0
1.46,0.126988559945097,0,0,0.126988559945097,0,0,0.171952760531756,-0,-0
1.47,0.12786982777777,0,0,0.12786982777777,0,0,0.169898547832726,-0,-0
1.48,0.128746857369089,0,0,0.128746857369089,0,0,0.167873888472542,-0,-0
1.49,0.129619637624144,0,0,0.129619637624144,0,0,0.165878304247386,-0,-0
1.5,0.13048815811635,0,0,0.13048815811635,0,0,0.16391132385414,-0,-0
1.51,0.131352409087443,0,0,0.131352409087443,0,0,0.161972482890382,-0,-0
1.52,0.132212381447483,0,0,0.132212381447483,0,0,0.160061323854391,-0,-0
1.53,0.133068066774854,0,0,0.133068066774854,0,0,0.158177396145143,-0,-0
1.54,0.133919457316262,0,0,0.133919457316262,0,0,0.156320256062311,-0,-0
1.55,0.134766545986735,0,0,0.134766545986735,0,0,0.154489466806268,-0,-0
1.56,0.135609326369626,0,0,0.135609326369626,0,0,0.152684598478085,-0,-0
1.57,0.136447792716611,0,0,0.136447792716611,0,0,0.150905228079529,-0,-0
1.58,0.137281939947686,0,0,0.137281939947686,0,0,0.149150939513069,-0,-0
1.59,0.138111763651174,0,0,0.138111763651174,0,0,0.147421323581869,-0,-0
1.6,0.138937260083719,0,0,0.138937260083719,0,0,0.145715977989793,-0,-0
1.61,0.139758426170288,0,0,0.139758426170288,0,0,0.144034507341402,-0,-0
1.62,0.140575259460531,0,0,0.140575259460531,0,0,0.142376522775992,-0,-0
1.63,0.141387758016757,0,0,0.141387758016757,0,0,0.14074164018094,-0,-0
1.64,0.142195922277762,0,0,0.142195922277762,0,0,0.139129494808445,-0,-0
1.65,0.142999753541205,0,0,0.142999753541205,0,0,0.137539730410342,-0,-0
1.66,0.143799253486409,0,0,0.143799253486409,0,0,0.1359719955147,-0,-0
1.67,0.14459442417436,0,0,0.14459442417436,0,0,0.134425943425819,-0,-0
1.68,0.145385268047712,0,0,0.145385268047712,0,0,0.132901232224236,-0,-0
1.69,0.146171787930784,0,0,0.146171787930783,0,0,0.131397524766717,-0,-0
1.7,0.146953987029557,0,0,0.146953987029557,0,0,0.12991448868626,-0,-0
1.71,0.14773186893168,0,0,0.14773186893168,0,0,0.1284517963921,-0,-0
1.72,0.148505437606467,0,0,0.148505437606467,0,0,0.127009125069701,-0,-0
1.73,0.149274697404895,0,0,0.149274697404895,0,0,0.125586156680763,-0,-0
1.74,0.150039653059609,0,0,0.150039653059609,0,0,0.124182577963214,-0,-0
1.75,0.150800309684917,0,0,0.150800309684917,0,0,0.12279808043122,-0,-0
1.76,0.151556672776793,0,0,0.151556672776793,0,0,0.121432360375177,-0,-0
1.77,0.152308748212874,0,0,0.152308748212874,0,0,0.120085118861715,-0,-0
1.78,0.153056542252466,0,0,0.153056542252466,0,0,0.118756061733695,-0,-0
1.79,0.153800061536538,0,0,0.153800061536538,0,0,0.117444899610213,-0,-0
1.8,0.154539313087722,0,0,0.154539313087722,0,0,0.116151347886597,-0,-0
1.81,0.155274304310319,0,0,0.155274304310319,0,0,0.114875126734407,-0,-0
1.82,0.15600504297768,0,0,0.15600504297768,0,0,0.11361596099411,-0,-0
1.83,0.156731536706838,0,0,0.156731536706838,0,0,0.112373575165319,-0,-0
1.84,0.157453795030521,0,0,0.157453795030521,0,0,0.111147709944335,-0,-0
1.85,0.158171828500881,0,0,0.158171828500881,0,0,0.109938116034545,-0,-0
1.86,0.158885647841691,0,0,0.158885647841691,0,0,0.10874454726434,-0,-0
1.87,0.15959526394835,0,0,0.15959526394835,0,0,0.10756676058711,-0,-0
1.88,0.160300687887882,0,0,0.160300687887882,0,0,0.106404516081249,-0,-0
1.89,0.161001930898932,0,0,0.161001930898932,0,0,0.105257576950153,-0,-0
1.9,0.161699004391769,0,0,0.161699004391769,0,0,0.104125709522218,-0,-0
1.91,0.162391919948289,0,0,0.162391919948289,0,0,0.103008683250843,-0,-0
1.92,0.163080689322008,0,0,0.163080689322008,0,0,0.101906270714429,-0,-0
1.93,0.163765324438067,0,0,0.163765324438067,0,0,0.100818247616378,-0,-0
1.94,0.164445837393232,0,0,0.164445837393232,0,0,0.0997443927850956,-0,-0
1.95,0.165122240455892,0,0,0.165122240455892,0,0,0.0986844881739867,-0,-0
1.96,0.165794546066058,0,0,0.165794546066058,0,0,0.0976383188614605,-0,-0
1.97,0.166462766835367,0,0,0.166462766835367,0,0,0.0966056730509266,-0,-0
1.98,0.16712691554708,0,0,0.16712691554708,0,0,0.0955863420707962,-0,-0
1.99,0.167787005156079,0,0,0.167787005156079,0,0,0.0945801203744835,-0,-0
2,0.168443048788874,0,0,0.168443048788874,0,0,0.0935868055404042,-0,-0
2.01,0.169095059743594,0,0,0.169095059743594,0,0,0.0926061982719745,-0,-0
2.02,0.169743051489996,0,0,0.169743051489996,0,0,0.0916381023976148,-0,-0
2.03,0.170387037669458,0,0,0.170387037669458,0,0,0.0906823248707455,-0,-0
2.04,0.171027032094982,0,0,0.171027032094982,0,0,0.0897386757697889,-0,-0
2.05,0.171663048749197,0,0,0.171663048749197,0,0,0.0888069682786404,-0,-0
2.06,0.172295101319878,0,0,0.172295101319878,0,0,0.0878870134198124,-0,-0
2.07,0.172923204923409,0,0,0.172923204923409,0,0,0.0869786350506897,-0,-0
2.08,0.17354737562241,0,0,0.17354737562241,0,0,0.0860816672760401,-0,-0
2.09,0.174167629509271,0,0,0.174167629509271,0,0,0.0851959460952154,-0,-0
2.1,0.174783982706154,0,0,0.174783982706154,0,0,0.0843213094021506,-0,-0
2.11,0.175396451364993,0,0,0.175396451364993,0,0,0.083457596985364,-0,-0
2.12,0.176005051667491,0,0,0.176005051667491,0,0,0.0826046505279578,-0,-0
2.13,0.176609799825126,0,0,0.176609799825126,0,0,0.0817623136076168,-0,-0
2.14,0.177210712079143,0,0,0.177210712079143,0,0,0.0809304316966095,-0,-0
2.15,0.177807804700562,0,0,0.177807804700562,0,0,0.0801088521617884,-0,-0
2.16,0.178401093990173,0,0,0.178401093990173,0,0,0.0792974242645891,-0,-0
2.17,0.178990596278535,0,0,0.178990596278535,0,0,0.0784959991610298,-0,-0
2.18,0.179576327925983,0,0,0.179576327925983,0,0,0.0777044299017132,-0,-0
2.19,0.180158305322619,0,0,0.180158305322619,0,0,0.0769225714318243,-0,-0
2.2,0.180736544888319,0,0,0.180736544888319,0,0,0.0761502805911329,-0,-0
2.21,0.181311063072729,0,0,0.181311063072729,0,0,0.0753874161139909,-0,-0
2.22,0.181881876355266,0,0,0.181881876355266,0,0,0.0746338386293343,-0,-0
2.23,0.18244900124512,0,0,0.18244900124512,0,0,0.0738894106606826,-0,-0
2.24,0.183012454281251,0,0,0.183012454281251,0,0,0.0731539966261379,-0,-0
2.25,0.18357225203239,0,0,0.18357225203239,0,0,0.0724274628383863,-0,-0
2.26,0.184128411097041,0,0,0.184128411097041,0,0,0.0717096775046976,-0,-0
2.27,0.184680948103477,0,0,0.184680948103477,0,0,0.0710005107269245,-0,-0
2.28,0.185229879709744,0,0,0.185229879709744,0,0,0.0702998345015029,-0,-0
2.29,0.185775222603659,0,0,0.185775222603659,0,0,0.0696075227194529,-0,-0
2.3,0.18631699350281,0,0,0.18631699350281,0,0,0.0689234511663773,-0,-0
2.31,0.186855209154556,0,0,0.186855209154556,0,0,0.0682474975224625,-0,-0
2.32,0.187389886336425,0,0,0.187389886336425,0,0,0.0675795413387663,-0,-0
2.33,0.187921042177741,0,0,0.187921042177741,0,0,0.0669194636800984,-0,-0
2.34,0.188448694706125,0,0,0.188448694706125,0,0,0.0662671553234944,-0,-0
2.35,0.18897286206357,0,0,0.18897286206357,0,0,0.0656225114544925,-0,-0
2.36,0.189493562347334,0,0,0.189493562347334,0,0,0.0649854283659827,-0,-0
2.37,0.190010813609939,0,0,0.190010813609939,0,0,0.0643558034582056,-0,-0
2.38,0.190524633859174,0,0,0.190524633859174,0,0,0.0637335352387516,-0,-0
2.39,0.191035041058093,0,0,0.191035041058093,0,0,0.0631185233225627,-0,-0
2.4,0.191542053125011,0,0,0.191542053125011,0,0,0.0625106684319312,-0,-0
2.41,0.192045687933513,0,0,0.192045687933513,0,0,0.0619098723964997,-0,-0
2.42,0.192545963312447,0,0,0.192545963312447,0,0,0.0613160381532611,-0,-0
2.43,0.193042897045924,0,0,0.193042897045924,0,0,0.0607290697465595,-0,-0
2.44,0.193536506873324,0,0,0.193536506873324,0,0,0.0601488723280896,-0,-0
2.45,0.194026810489288,0,0,0.194026810489288,0,0,0.0595753521568961,-0,-0
2.46,0.194513825543726,0,0,0.194513825543726,0,0,0.059008416599375,-0,-0
2.47,0.194997569641809,0,0,0.194997569641809,0,0,0.0584479741292722,-0,-0
2.48,0.195478060343975,0,0,0.195478060343975,0,0,0.0578939343276846,-0,-0
2.49,0.195955315165927,0,0,0.195955315165927,0,0,0.0573462078830594,-0,-0
2.5,0.196429351578634,0,0,0.196429351578634,0,0,0.0568047065911944,-0,-0
2.51,0.196900187008327,0,0,0.196900187008327,0,0,0.0562693433552385,-0,-0
2.52,0.197367838836505,0,0,0.197367838836505,0,0,0.0557400321856907,-0,-0
2.53,0.19783232439993,0,0,0.19783232439993,0,0,0.0552166882004005,-0,-0
2.54,0.19829366099063,0,0,0.19829366099063,0,0,0.0546992276245684,-0,-0
2.55,0.198751865855898,0,0,0.198751865855898,0,0,0.0541875677907451,-0,-0
2.56,0.199206956198291,0,0,0.199206956198291,0,0,0.0536816271388318,-0,-0
2.57,0.199658949175632,0,0,0.199658949175632,0,0,0.053181325216081,-0,-0
2.58,0.200107861901009,0,0,0.200107861901009,0,0,0.0526865826770944,-0,-0
2.59,0.200553711442775,0,0,0.200553711442775,0,0,0.0521973212838268,-0,-0
2.6,0.200996514824547,0,0,0.200996514824547,0,0,0.0517134639055802,-0,-0
2.61,0.201436289025208,0,0,0.201436289025208,0,0,0.0512349345190095,-0,-0
2.62,0.201873051058479,0,0,0.201873051058479,0,0,0.050761657991866,-0,-0
2.63,0.202306818603131,0,0,0.202306818603131,0,0,0.0502935625841094,-0,-0
2.64,0.202737609447738,0,0,0.202737609447738,0,0,0.0498305831327517,-0,-0
2.65,0.203165441275679,0,0,0.203165441275679,0,0,0.0493726555745061,-0,-0
