t,phi,theta,psi,phi_b,theta_b,psi_b,tau_x,tau_y,tau_z
0,0,0,0,0,0,0,1.62896173838261,-0,-0
0.01,2.16317462206346e-05,0,0,2.16317462206346e-05,0,0,1.60179823634902,-0,-0
0.02,8.57581319472699e-05,0,0,8.57581319472698e-05,0,0,1.57508996000547,-0,-0
0.03,0.000191244615528951,0,0,0.000191244615528951,0,0,1.54882926011845,-0,-0
0.04,0.000336979931108223,0,0,0.000336979931108223,0,0,1.52300861651515,-0,-0
0.05,0.000521874904801539,0,0,0.000521874904801539,0,0,1.49762063215165,-0,-0
0.06,0.000744862454699261,0,0,0.000744862454699261,0,0,1.47265803311292,-0,-0
0.07,0.00100489218403707,0,0,0.00100489218403707,0,0,1.44811364148333,-0,-0
0.08,0.00130094097533528,0,0,0.00130094097533528,0,0,1.42398042846912,-0,-0
0.09,0.00163201300359021,0,0,0.00163201300359021,0,0,1.40025151441268,-0,-0
0.1,0.00199713080246282,0,0,0.00199713080246282,0,0,1.37692012396038,-0,-0
0.11,0.00239533526427876,0,0,0.00239533526427876,0,0,1.35397958606248,-0,-0
0.12,0.00282568564002835,0,0,0.00282568564002835,0,0,1.3314233339732,-0,-0
0.13,0.00328725953936659,0,0,0.00328725953936659,0,0,1.30924490525069,-0,-0
0.14,0.00377915293061317,0,0,0.00377915293061317,0,0,1.28743794175704,-0,-0
0.15,0.00430048014075243,0,0,0.00430048014075243,0,0,1.26599618965826,-0,-0
0.16,0.00485037385543342,0,0,0.00485037385543342,0,0,1.24491349942432,-0,-0
0.17,0.00542798507684414,0,0,0.00542798507684414,0,0,1.22418382560733,-0,-0
0.18,0.00603248227843688,0,0,0.00603248227843688,0,0,1.20380122188907,-0,-0
0.19,0.00666305834608435,0,0,0.00666305834608435,0,0,1.18375987676036,-0,-0
0.2,0.00731892425793893,0,0,0.00731892425793893,0,0,1.16405408179254,-0,-0
0.21,0.00799930588677879,0,0,0.00799930588677879,0,0,1.14467821513113,-0,-0
0.22,0.00870344400000795,0,0,0.00870344400000795,0,0,1.12562674149584,-0,-0
0.23,0.00943059425965624,0,0,0.00943059425965624,0,0,1.10689421218057,-0,-0
0.24,0.0101800272223793,0,0,0.0101800272223793,0,0,1.08847526505342,-0,-0
0.25,0.0109510283394585,0,0,0.0109510283394585,0,0,1.07036462455666,-0,-0
0.26,0.0117428979568013,0,0,0.0117428979568013,0,0,1.05255710170675,-0,-0
0.27,0.0125549513149406,0,0,0.0125549513149406,0,0,1.03504759409435,-0,-0
0.28,0.0133865184896789,0,0,0.0133865184896789,0,0,1.01783108556965,-0,-0
0.29,0.01423694321952,0,0,0.01423694321952,0,0,1.00090263959405,-0,-0
0.3,0.0151055898727811,0,0,0.0151055898727811,0,0,0.984257435459467,-0,-0
0.31,0.0159918377330459,0,0,0.0159918377330459,0,0,0.967890739242263,-0,-0
0.32,0.0168950780404021,0,0,0.0168950780404021,0,0,0.951797888372045,-0,-0
0.33,0.0178147139914417,0,0,0.0178147139914417,0,0,0.935974291631675,-0,-0
0.34,0.018750160739261,0,0,0.018750160739261,0,0,0.920415429157269,-0,-0
0.35,0.0197008453934603,0,0,0.0197008453934603,0,0,0.905116852438195,-0,-0
0.36,0.0206662070201445,0,0,0.0206662070201445,0,0,0.890074184317077,-0,-0
0.37,0.0216456966419222,0,0,0.0216456966419222,0,0,0.875283118989789,-0,-0
0.38,0.0226387772379068,0,0,0.0226387772379068,0,0,0.860739422005461,-0,-0
0.39,0.0236449237437154,0,0,0.0236449237437154,0,0,0.846438930266475,-0,-0
0.4,0.0246636222728555,0,0,0.0246636222728555,0,0,0.832377547723765,-0,-0
0.41,0.025694372866495,0,0,0.025694372866495,0,0,0.818551259184606,-0,-0
0.42,0.0267366914232045,0,0,0.0267366914232045,0,0,0.804956141377303,-0,-0
0.43,0.0277901035541636,0,0,0.0277901035541636,0,0,0.791588330612982,-0,-0
0.44,0.0288541443477668,0,0,0.0288541443477668,0,0,0.778444021527698,-0,-0
0.45,0.0299283583696232,0,0,0.0299283583696232,0,0,0.765519467082437,-0,-0
0.46,0.031012299662557,0,0,0.031012299662557,0,0,0.75281097856312,-0,-0
0.47,0.0321055317466069,0,0,0.0321055317466069,0,0,0.7403149255806,-0,-0
0.48,0.0332076276190265,0,0,0.0332076276190265,0,0,0.728027736070659,-0,-0
0.49,0.0343181697542845,0,0,0.0343181697542845,0,0,0.715945896294014,-0,-0
0.5,0.0354367501040641,0,0,0.0354367501040641,0,0,0.704065950836314,-0,-0
0.51,0.0365629700972634,0,0,0.0365629700972634,0,0,0.69238450260814,-0,-0
0.52,0.0376964398272502,0,0,0.0376964398272502,0,0,0.680898208218056,-0,-0
0.53,0.0388367811636159,0,0,0.0388367811636159,0,0,0.669603794008407,-0,-0
0.54,0.039983628602404,0,0,0.039983628602404,0,0,0.658498061594481,-0,-0
0.55,0.0411366241560684,0,0,0.0411366241560684,0,0,0.647577860455267,-0,-0
0.56,0.0422954172401693,0,0,0.0422954172401693,0,0,0.636840087315019,-0,-0
0.57,0.0434596646733735,0,0,0.0434596646733735,0,0,0.626281686143258,-0,-0
0.58,0.0446290306774543,0,0,0.0446290306774543,0,0,0.615899648154768,-0,-0
0.59,0.0458031868772915,0,0,0.0458031868772915,0,0,0.605691011809598,-0,-0
0.6,0.0469818123008716,0,0,0.0469818123008716,0,0,0.595652862813062,-0,-0
0.61,0.0481645933792874,0,0,0.0481645933792874,0,0,0.58578233411574,-0,-0
0.62,0.0493512239467383,0,0,0.0493512239467383,0,0,0.576076605913475,-0,-0
0.63,0.0505414052405303,0,0,0.0505414052405303,0,0,0.566532905647377,-0,-0
0.64,0.0517348457270212,0,0,0.0517348457270212,0,0,0.557148507012568,-0,-0
0.65,0.0529312607773485,0,0,0.0529312607773485,0,0,0.547920727371206,-0,-0
0.66,0.054130377720952,0,0,0.054130377720952,0,0,0.538846955865682,-0,-0
0.67,0.0553319308414352,0,0,0.0553319308414352,0,0,0.529924626547176,-0,-0
0.68,0.0565356601069623,0,0,0.0565356601069623,0,0,0.521151211354545,-0,-0
0.69,0.0577413111702582,0,0,0.0577413111702582,0,0,0.512524220114321,-0,-0
0.7,0.0589486353686085,0,0,0.0589486353686085,0,0,0.504041200540709,-0,-0
0.71,0.0601573897238596,0,0,0.0601573897238596,0,0,0.49569973823559,-0,-0
0.72,0.0613673369424184,0,0,0.0613673369424184,0,0,0.487497456688524,-0,-0
0.73,0.0625782454152526,0,0,0.0625782454152526,0,0,0.479432017276741,-0,-0
0.74,0.0637898892178908,0,0,0.0637898892178908,0,0,0.47150111926515,-0,-0
0.75,0.0650020481104221,0,0,0.0650020481104221,0,0,0.463702499806334,-0,-0
0.76,0.0662145075374962,0,0,0.0662145075374962,0,0,0.456033933940552,-0,-0
0.77,0.067427058518738,0,0,0.067427058518738,0,0,0.448493233953849,-0,-0
0.78,0.0686394971335855,0,0,0.0686394971335855,0,0,0.441078245653731,-0,-0
0.79,0.0698516292274304,0,0,0.0698516292274304,0,0,0.43378687511749,-0,-0
0.8,0.0710632662797732,0,0,0.0710632662797732,0,0,0.426617066166148,-0,-0
0.81,0.0722742240462643,0,0,0.0722742240462643,0,0,0.419566792665022,-0,-0
0.82,0.0734843225587031,0,0,0.0734843225587031,0,0,0.412634058523732,-0,-0
0.83,0.0746933861250387,0,0,0.0746933861250387,0,0,0.405816897696199,-0,-0
0.84,0.0759012433293694,0,0,0.0759012433293694,0,0,0.399113374180641,-0,-0
0.85,0.0771077270319432,0,0,0.0771077270319431,0,0,0.392521582019578,-0,-0
0.86,0.0783126743691571,0,0,0.0783126743691571,0,0,0.386039645299828,-0,-0
0.87,0.079515926753558,0,0,0.079515926753558,0,0,0.379665718152513,-0,-0
0.88,0.0807173298738417,0,0,0.0807173298738417,0,0,0.373397984753051,-0,-0
0.89,0.081916733694854,0,0,0.081916733694854,0,0,0.367234659321161,-0,-0
0.9,0.0831139924575895,0,0,0.0831139924575895,0,0,0.361173986120864,-0,-0
0.91,0.0843089643383055,0,0,0.0843089643383055,0,0,0.355214237346431,-0,-0
0.92,0.085501512215569,0,0,0.085501512215569,0,0,0.349353716539846,-0,-0
0.93,0.0866915066267316,0,0,0.0866915066267316,0,0,0.343590776660953,-0,-0
0.94,0.0878788216496982,0,0,0.0878788216496982,0,0,0.337923796577143,-0,-0
0.95,0.089063334498784,0,0,0.089063334498784,0,0,0.332351178680736,-0,-0
0.96,0.0902449255247141,0,0,0.0902449255247141,0,0,0.326871348888983,-0,-0
0.97,0.091423478214624,0,0,0.091423478214624,0,0,0.32148275664406,-0,-0
0.98,0.092598879192059,0,0,0.092598879192059,0,0,0.316183874913074,-0,-0
0.99,0.0937710182169747,0,0,0.0937710182169747,0,0,0.310973200188058,-0,-0
1,0.0949397881857368,0,0,0.0949397881857367,0,0,0.305849252485975,-0,-0
1.01,0.0961050851311209,0,0,0.0961050851311209,0,0,0.300810575348717,-0,-0
1.02,0.0972668082223131,0,0,0.0972668082223131,0,0,0.295855735843103,-0,-0
1.03,0.0984248597649093,0,0,0.0984248597649093,0,0,0.29098332456088,-0,-0
1.04,0.0995791452009155,0,0,0.0995791452009155,0,0,0.286191955618726,-0,-0
1.05,0.100729573099598,0,0,0.100729573099598,0,0,0.281480266600666,-0,-0
1.06,0.101876054454713,0,0,0.101876054454713,0,0,0.27684691357099,-0,-0
1.07,0.103018506234301,0,0,0.103018506234301,0,0,0.27229059218215,-0,-0
1.08,0.10415684939586,0,0,0.10415684939586,0,0,0.267810026899179,-0,-0
1.09,0.105291007124532,0,0,0.105291007124532,0,0,0.263403960343167,-0,-0
1.1,0.106420904833096,0,0,0.106420904833096,0,0,0.259071153291257,-0,-0
1.11,0.107546470161974,0,0,0.107546470161974,0,0,0.254810384676649,-0,-0
1.12,0.108667632979228,0,0,0.108667632979228,0,0,0.250620451588593,-0,-0
1.13,0.109784325380562,0,0,0.109784325380562,0,0,0.2465001692724,-0,-0
1.14,0.110896481689318,0,0,0.110896481689318,0,0,0.242448371129429,-0,-0
1.15,0.112004038456481,0,0,0.112004038456481,0,0,0.238463908717098,-0,-0
1.16,0.113106934460675,0,0,0.113106934460675,0,0,0.234545651748877,-0,-0
1.17,0.114205110708168,0,0,0.114205110708168,0,0,0.230692488094291,-0,-0
1.18,0.115298510432865,0,0,0.115298510432865,0,0,0.226903323778923,-0,-0
1.19,0.116387079096313,0,0,0.116387079096313,0,0,0.223177082984404,-0,-0
1.2,0.117470764387701,0,0,0.117470764387701,0,0,0.219512708048425,-0,-0
1.21,0.118549515788781,0,0,0.118549515788781,0,0,0.21590915634738,-0,-0
1.22,0.119623286203676,0,0,0.119623286203676,0,0,0.212365409447508,-0,-0
1.23,0.120692032838453,0,0,0.120692032838453,0,0,0.208880480127899,-0,-0
1.24,0.121755714486414,0,0,0.121755714486414,0,0,0.205453395414274,-0,-0
1.25,0.122814291456563,0,0,0.122814291456563,0,0,0.202083196112292,-0,-0
1.26,0.123867725573606,0,0,0.123867725573606,0,0,0.198768936807557,-0,-0
1.27,0.124915980177954,0,0,0.124915980177954,0,0,0.195509685865613,-0,-0
1.28,0.12595902012572,0,0,0.12595902012572,0,0,0.192304525431948,-0,-0
1.29,0.126996811788721,0,0,0.126996811788721,0,0,0.189152551431992,-0,-0
1.3,0.128029323054476,0,0,0.128029323054476,0,0,0.186052873571116,-0,-0
1.31,0.129056523326207,0,0,0.129056523326207,0,0,0.183004615334634,-0,-0
1.32,0.130078383522839,0,0,0.130078383522839,0,0,0.180006913987804,-0,-0
1.33,0.131094876079001,0,0,0.131094876079001,0,0,0.177058920575822,-0,-0
1.34,0.132105974945023,0,0,0.132105974945023,0,0,0.174159799923831,-0,-0
1.35,0.133111655586941,0,0,0.133111655586942,0,0,0.171308730636912,-0,-0
1.36,0.134111894986492,0,0,0.134111894986492,0,0,0.168504905100093,-0,-0
1.37,0.135106671463472,0,0,0.135106671463472,0,0,0.165747528150599,-0,-0
1.38,0.13609596496069,0,0,0.13609596496069,0,0,0.163035817521216,-0,-0
1.39,0.137079759381383,0,0,0.137079759381383,0,0,0.160369020547177,-0,-0
1.4,0.138058039958254,0,0,0.138058039958254,0,0,0.157746397282852,-0,-0
1.41,0.139030792893837,0,0,0.139030792893837,0,0,0.155167218036307,-0,-0
1.42,0.139998005360503,0,0,0.139998005360503,0,0,0.152630763369295,-0,-0
1.43,0.140959665500457,0,0,0.140959665500457,0,0,0.150136324097258,-0,-0
1.44,0.141915762425739,0,0,0.141915762425739,0,0,0.147683201289328,-0,-0
1.45,0.142866286218221,0,0,0.142866286218221,0,0,0.145270706268328,-0,-0
1.46,0.143811227929612,0,0,0.143811227929612,0,0,0.142898160610771,-0,-0
1.47,0.144750579581455,0,0,0.144750579581455,0,0,0.140564896146857,-0,-0
1.48,0.145684334165126,0,0,0.145684334165126,0,0,0.13827025496048,-0,-0
1.49,0.146612485641837,0,0,0.146612485641837,0,0,0.136013589389218,-0,-0
1.5,0.147535028942634,0,0,0.147535028942634,0,0,0.133794262024344,-0,-0
1.51,0.148451959968398,0,0,0.148451959968398,0,0,0.131611645710819,-0,-0
1.52,0.149363275589842,0,0,0.149363275589842,0,0,0.129465123547292,-0,-0
1.53,0.150268973647518,0,0,0.150268973647518,0,0,0.127354088886104,-0,-0
1.54,0.151169052950669,0,0,0.151169052950669,0,0,0.125277945324395,-0,-0
1.55,0.152063512832927,0,0,0.152063512832927,0,0,0.123236102465053,-0,-0
1.56,0.152952355364334,0,0,0.152952355364334,0,0,0.121227991226993,-0,-0
1.57,0.153835584427303,0,0,0.153835584427303,0,0,0.11925305904453,-0,-0
1.58,0.154713204466144,0,0,0.154713204466144,0,0,0.117310760796501,-0,-0
1.59,0.155585220487065,0,0,0.155585220487065,0,0,0.115400558806271,-0,-0
1.6,0.156451638058174,0,0,0.156451638058174,0,0,0.113521922841725,-0,-0
1.61,0.157312463309475,0,0,0.157312463309475,0,0,0.111674330115277,-0,-0
1.62,0.158167702932869,0,0,0.158167702932869,0,0,0.109857265283861,-0,-0
1.63,0.159017364182157,0,0,0.159017364182157,0,0,0.108070220448938,-0,-0
1.64,0.159861454873038,0,0,0.159861454873038,0,0,0.106312695156491,-0,-0
1.65,0.160699983383109,0,0,0.160699983383109,0,0,0.104584196397031,-0,-0
1.66,0.161532958651863,0,0,0.161532958651863,0,0,0.102884238605588,-0,-0
1.67,0.162360390180692,0,0,0.162360390180692,0,0,0.10121234366172,-0,-0
1.68,0.163182288032888,0,0,0.163182288032888,0,0,0.0995680408895098,-0,-0
1.69,0.163998662833639,0,0,0.163998662833639,0,0,0.0979508670575613,-0,-0
1.7,0.16480952577003,0,0,0.16480952577003,0,0,0.0963603663790051,-0,-0
1.71,0.165614888591047,0,0,0.165614888591047,0,0,0.0947960905114948,-0,-0
1.72,0.166414763607571,0,0,0.166414763607571,0,0,0.0932575985572089,-0,-0
1.73,0.167209163659206,0,0,0.167209163659206,0,0,0.0917444567892214,-0,-0
1.74,0.167998101394013,0,0,0.167998101394013,0,0,0.0902562317530058,-0,-0
1.75,0.168781592150696,0,0,0.168781592150696,0,0,0.0887925123709518,-0,-0
1.76,0.169559652521561,0,0,0.169559652521561,0,0,0.0873529004716969,-0,-0
1.77,0.170332299353107,0,0,0.170332299353107,0,0,0.0859370030272798,-0,-0
1.78,0.171099549746023,0,0,0.171099549746023,0,0,0.0845444321531437,-0,-0
1.79,0.171861421055195,0,0,0.171861421055195,0,0,0.0831748051081343,-0,-0
1.8,0.172617930889697,0,0,0.172617930889697,0,0,0.0818277442944988,-0,-0
1.81,0.173369097112796,0,0,0.173369097112796,0,0,0.0805028772578892,-0,-0
1.82,0.174114937841954,0,0,0.174114937841954,0,0,0.0791998366873579,-0,-0
1.83,0.174855471448822,0,0,0.174855471448822,0,0,0.0779182604153627,-0,-0
1.84,0.175590716559245,0,0,0.175590716559245,0,0,0.0766577914177625,-0,-0
1.85,0.17632069205326,0,0,0.17632069205326,0,0,0.0754180778138199,-0,-0
1.86,0.177045417065096,0,0,0.177045417065096,0,0,0.0741987728661997,-0,-0
1.87,0.177764910983175,0,0,0.177764910983175,0,0,0.0729995349809696,-0,-0
1.88,0.178479193450111,0,0,0.178479193450111,0,0,0.0718200277076004,-0,-0
1.89,0.17918828436271,0,0,0.17918828436271,0,0,0.0706599197389658,-0,-0
1.9,0.179892203871969,0,0,0.179892203871969,0,0,0.0695188849113423,-0,-0
1.91,0.180590972383081,0,0,0.180590972383081,0,0,0.0683966022044082,-0,-0
1.92,0.181284610555427,0,0,0.181284610555427,0,0,0.0672927557412464,-0,-0
1.93,0.181973139302583,0,0,0.181973139302583,0,0,0.0662070347883414,-0,-0
1.94,0.182656579792317,0,0,0.182656579792317,0,0,0.0651391337555804,-0,-0
1.95,0.18333495321177,0,0,0.18333495321177,0,0,0.0640887496732689,-0,-0
1.96,0.184008281068754,0,0,0.184008281068754,0,0,0.0630555819869515,-0,-0
1.97,0.184676587201773,0,0,0.184676587201773,0,0,0.0620393531641671,-0,-0
1.98,0.185339895699054,0,0,0.185339895699054,0,0,0.0610397909714444,-0,-0
1.99,0.185998230691006,0,0,0.185998230691006,0,0,0.0600566265120725,-0,-0
2,0.186651616350225,0,0,0.186651616350225,0,0,0.0590895942260983,-0,-0
2.01,0.187300076891489,0,0,0.187300076891489,0,0,0.0581384318903285,-0,-0
2.02,0.187943636571761,0,0,0.187943636571761,0,0,0.0572028806183301,-0,-0
2.03,0.18858231969019,0,0,0.18858231969019,0,0,0.0562826848604263,-0,-0
2.04,0.189216150588106,0,0,0.189216150588106,0,0,0.055377592403703,-0,-0
2.05,0.189845153649026,0,0,0.189845153649026,0,0,0.0544873543720019,-0,-0
2.06,0.190469353298651,0,0,0.190469353298651,0,0,0.0536117252259268,-0,-0
2.07,0.191088774004866,0,0,0.191088774004866,0,0,0.0527504627628391,-0,-0
2.08,0.191703440277741,0,0,0.191703440277741,0,0,0.0519033281168593,-0,-0
2.09,0.192313376669528,0,0,0.192313376669528,0,0,0.0510700857588681,-0,-0
2.1,0.192918607774666,0,0,0.192918607774666,0,0,0.0502505034965035,-0,-0
2.11,0.193519158229777,0,0,0.193519158229777,0,0,0.0494443524741646,-0,-0
2.12,0.194115052713669,0,0,0.194115052713669,0,0,0.0486514071730091,-0,-0
2.13,0.194706315947331,0,0,0.194706315947331,0,0,0.0478714454109526,-0,-0
2.14,0.19529297269394,0,0,0.19529297269394,0,0,0.0471042483426725,-0,-0
2.15,0.195875047758856,0,0,0.195875047758856,0,0,0.0463496004596026,-0,-0
2.16,0.196452565989622,0,0,0.196452565989622,0,0,0.0456072895899371,-0,-0
2.17,0.197025552275967,0,0,0.197025552275967,0,0,0.0448771068986299,-0,-0
2.18,0.197594031549804,0,0,0.197594031549804,0,0,0.0441588468873925,-0,-0
2.19,0.19815802878523,0,0,0.19815802878523,0,0,0.0434523073946975,-0,-0
2.2,0.198717569057975,0,0,0.198717569057975,0,0,0.0427572886544846,-0,-0
2.21,0.199272678422803,0,0,0.199272678422803,0,0,0.0420735968515784,-0,-0
2.22,0.199823383658274,0,0,0.199823383658274,0,0,0.0414010516845519,-0,-0
2.23,0.200369711492396,0,0,0.200369711492396,0,0,0.0407394757785177,-0,-0
2.24,0.200911688580355,0,0,0.200911688580355,0,0,0.040088693853463,-0,-0
2.25,0.201449341504521,0,0,0.201449341504521,0,0,0.0394485327242496,-0,-0
2.26,0.201982696774441,0,0,0.201982696774441,0,0,0.0388188213006138,-0,-0
2.27,0.202511780826848,0,0,0.202511780826848,0,0,0.0381993905871659,-0,-0
2.28,0.20303662002565,0,0,0.20303662002565,0,0,0.0375900736833925,-0,-0
2.29,0.203557240661942,0,0,0.203557240661942,0,0,0.0369907057836524,-0,-0
2.3,0.204073668953996,0,0,0.204073668953996,0,0,0.0364011241771802,-0,-0
2.31,0.204585931047266,0,0,0.204585931047266,0,0,0.0358211682480845,-0,-0
2.32,0.205094053014388,0,0,0.205094053014388,0,0,0.035250679475349,-0,-0
2.33,0.205598060855177,0,0,0.205598060855177,0,0,0.0346895014328319,-0,-0
2.34,0.206097980496632,0,0,0.206097980496632,0,0,0.0341374797892655,-0,-0
2.35,0.20659383779293,0,0,0.20659383779293,0,0,0.0335944623082565,-0,-0
2.36,0.207085658525431,0,0,0.207085658525431,0,0,0.0330602988482865,-0,-0
2.37,0.207573468402675,0,0,0.207573468402675,0,0,0.0325348413627118,-0,-0
2.38,0.208057293060383,0,0,0.208057293060383,0,0,0.0320179438997629,-0,-0
2.39,0.208537158061458,0,0,0.208537158061458,0,0,0.0315094626025445,-0,-0
2.4,0.209013088895982,0,0,0.209013088895982,0,0,0.0310092557090366,-0,-0
2.41,0.20948511098122,0,0,0.20948511098122,0,0,0.0305171835520932,-0,-0
2.42,0.209953249661618,0,0,0.209953249661618,0,0,0.030033108559443,-0,-0
2.43,0.210417530208801,0,0,0.210417530208801,0,0,0.0295568952536893,-0,-0
2.44,0.210877977821578,0,0,0.210877977821578,0,0,0.0290884102523091,-0,-0
2.45,0.211334617625935,0,0,0.211334617625935,0,0,0.0286275222676554,-0,-0
2.46,0.211787474675043,0,0,0.211787474675043,0,0,0.0281741021069543,-0,-0
2.47,0.212236574057875,0,0,0.212236574057875,0,0,0.0277280218478049,-0,-0
2.48,0.21268194165151,0,0,0.21268194165151,0,0,0.0272891576522928,-0,-0
2.49,0.213123603500172,0,0,0.213123603500172,0,0,0.0268573961954094,-0,-0
2.5,0.213561585506943,0,0,0.213561585506943,0,0,0.0264326260684943,-0,-0
2.51,0.21399591344893,0,0,0.21399591344893,0,0,0.0260147371112884,-0,-0
2.52,0.214426612977265,0,0,0.214426612977265,0,0,0.0256036204119384,-0,-0
2.53,0.214853709617111,0,0,0.214853709617111,0,0,0.0251991683069954,-0,-0
2.54,0.215277228767653,0,0,0.215277228767653,0,0,0.0248012743814149,-0,-0
2.55,0.215697195702105,0,0,0.215697195702105,0,0,0.024409833468556,-0,-0
2.56,0.216113635567709,0,0,0.216113635567709,0,0,0.0240247416501834,-0,-0
2.57,0.21652657338573,0,0,0.21652657338573,0,0,0.0236458962564651,-0,-0
2.58,0.216936034051463,0,0,0.216936034051463,0,0,0.0232731958659741,-0,-0
2.59,0.217342042334228,0,0,0.217342042334228,0,0,0.0229065403056876,-0,-0
2.6,0.217744622877373,0,0,0.217744622877373,0,0,0.0225458306509871,-0,-0
2.61,0.21814380019827,0,0,0.21814380019827,0,0,0.0221909692256589,-0,-0
2.62,0.21853959868832,0,0,0.21853959868832,0,0,0.0218418596018927,-0,-0
2.63,0.218932042612951,0,0,0.218932042612951,0,0,0.0214984066002835,-0,-0
2.64,0.219321156111616,0,0,0.219321156111616,0,0,0.0211605162898307,-0,-0
2.65,0.219706963197795,0,0,0.219706963197795,0,0,0.0208280959879373,-0,-0
2.66,0.220089487758996,0,0,0.220089487758996,0,0,0.020501054260411,-0,-0
