Time_s,Signal,TrueAmp,TruePhase_rad,TrueFreq_Hz
0,0,1,0,0.8
0.01,0.0501940989753769,0.999000499833375,0.0502654824574367,0.8
0.02,0.100161192011193,0.998001998667333,0.100530964914873,0.8
0.03,0.149775587693037,0.997004495503373,0.15079644737231,0.8
0.04,0.198912736144082,0.996007989343991,0.201061929829747,0.8
0.05,0.247449541178051,0.995012479192682,0.251327412287183,0.8
0.06,0.295264668158565,0.994017964053935,0.30159289474462,0.8
0.07,0.342238846796257,0.993024442933235,0.351858377202057,0.8
0.08,0.388255168129312,0.992031914837061,0.402123859659494,0.8
0.09,0.43319937494934,0.991040378772884,0.45238934211693,0.8
0.1,0.476960144952454,0.990049833749168,0.502654824574367,0.8
0.11,0.51942936591527,0.989060278775369,0.552920307031804,0.8
0.12,0.560502402217062,0.988071712861931,0.60318578948924,0.8
0.13,0.600078352052505,0.987084135020288,0.653451271946677,0.8
0.14,0.638060294704274,0.986097544262862,0.703716754404114,0.8
0.15,0.674355527271074,0.985111939603063,0.75398223686155,0.8
0.16,0.708875790274571,0.984127320055285,0.804247719318987,0.8
0.17,0.741537481597861,0.98314368463491,0.854513201776424,0.8
0.18,0.772261858238691,0.982161032358301,0.90477868423386,0.8
0.19,0.800975225392457,0.981179362242806,0.955044166691297,0.8
0.2,0.82760911241292,0.980198673306755,1.00530964914873,0.8
0.21,0.852100435232658,0.97921896456946,1.05557513160617,0.8
0.22,0.874391644860241,0.97824023505121,1.10584061406361,0.8
0.23,0.894430861607085,0.977262483773277,1.15610609652104,0.8
0.24,0.91217199473361,0.976285709757909,1.20637157897848,0.8
0.25,0.927574847241799,0.975309912028333,1.25663706143592,0.8
0.26,0.940605205579259,0.974335089608749,1.30690254389335,0.8
0.27,0.951234914058496,0.973361241524337,1.35716802635079,0.8
0.28,0.959441933834035,0.972388366801247,1.40743350880823,0.8
0.29,0.965210386319376,0.971416464466605,1.45769899126566,0.8
0.3,0.968530580965246,0.970445533548508,1.5079644737231,0.8
0.31,0.969399027360273,0.969475573076026,1.55822995618054,0.8
0.32,0.967818431654861,0.968506582079198,1.60849543863797,0.8
0.33,0.963797677348609,0.967538559589032,1.65876092109541,0.8
0.34,0.957351790521022,0.966571504637507,1.70902640355285,0.8
0.35,0.948501889624376,0.965605416257566,1.75929188601028,0.8
0.36,0.937275119996327,0.964640293483123,1.80955736846772,0.8
0.37,0.923704573288126,0.963676135349053,1.85982285092516,0.8
0.38,0.907829192041988,0.9627129408912,1.91008833338259,0.8
0.39,0.88969365968818,0.961750709146367,1.96035381584003,0.8
0.4,0.869348276268677,0.960789439152323,2.01061929829747,0.8
0.41,0.846848820229638,0.959829129947799,2.0608847807549,0.8
0.42,0.822256396659464,0.958869780572485,2.11115026321234,0.8
0.43,0.795637272382636,0.957911390067031,2.16141574566978,0.8
0.44,0.767062698351923,0.956953957473047,2.21168122812721,0.8
0.45,0.73660871981271,0.9559974818331,2.26194671058465,0.8
0.46,0.704355974743141,0.955041962190715,2.31221219304209,0.8
0.47,0.670389481102337,0.954087397590371,2.36247767549952,0.8
0.48,0.634798413446169,0.953133787077505,2.41274315795696,0.8
0.49,0.597675869495772,0.952181129698505,2.4630086404144,0.8
0.5,0.559118627268176,0.951229424500714,2.51327412287183,0.8
0.51,0.519226893401075,0.950278670532427,2.56353960532927,0.8
0.52,0.478104043324665,0.94932886684289,2.61380508778671,0.8
0.53,0.43585635395282,0.948380012482298,2.66407057024414,0.8
0.54,0.392592729583373,0.947432106501798,2.71433605270158,0.8
0.55,0.348424421713067,0.946485147953484,2.76460153515902,0.8
0.56,0.303464743486653,0.945539135890396,2.81486701761645,0.8
0.57,0.257828779511779,0.944594069366523,2.86513250007389,0.8
0.58,0.211633091781495,0.943649947436799,2.91539798253133,0.8
0.59,0.164995422454575,0.9427067691571,2.96566346498876,0.8
0.6,0.118034394250293,0.941764533584249,3.0159289474462,0.8
0.61,0.0708692092187674,0.94082323977601,3.06619442990364,0.8
0.62,0.0236193466506199,0.939882886791089,3.11645991236107,0.8
0.63,-0.0235957391097068,0.938943473689133,3.16672539481851,0.8
0.64,-0.07065692018388,0.938004999530729,3.21699087727595,0.8
0.65,-0.11744569525299,0.937067463377403,3.26725635973339,0.8
0.66,-0.163844487469488,0.936130864291619,3.31752184219082,0.8
0.67,-0.209736939440009,0.935195201336777,3.36778732464826,0.8
0.68,-0.255008204540233,0.934260473577214,3.4180528071057,0.8
0.69,-0.299545233833677,0.933326680078202,3.46831828956313,0.8
0.7,-0.343237057878836,0.932393819905948,3.51858377202057,0.8
0.71,-0.385975062723474,0.931461892127592,3.568849254478,0.8
0.72,-0.427653259400902,0.930530895811206,3.61911473693544,0.8
0.73,-0.46816854626085,0.929600830025793,3.66938021939288,0.8
0.74,-0.507420963487017,0.928671693841287,3.71964570185032,0.8
0.75,-0.545313939174327,0.927743486328553,3.76991118430775,0.8
0.76,-0.581754526361542,0.926816206559382,3.82017666676519,0.8
0.77,-0.616653630438888,0.925889853606495,3.87044214922263,0.8
0.78,-0.649926226375828,0.924964426543539,3.92070763168006,0.8
0.79,-0.681491565240908,0.924039924445087,3.9709731141375,0.8
0.8,-0.711273369513706,0.923116346386636,4.02123859659494,0.8
0.81,-0.739200016718198,0.922193691444608,4.07150407905237,0.8
0.82,-0.765204710937281,0.921271958696349,4.12176956150981,0.8
0.83,-0.789225641799666,0.920351147220125,4.17203504396725,0.8
0.84,-0.811206130562797,0.919431256095125,4.22230052642468,0.8
0.85,-0.831094762948801,0.918512284401457,4.27256600888212,0.8
0.86,-0.848845508424549,0.917594231220151,4.32283149133956,0.8
0.87,-0.864417825651821,0.916677095633152,4.37309697379699,0.8
0.88,-0.877776753868963,0.915760876723326,4.42336245625443,0.8
0.89,-0.888892990001463,0.914845573574452,4.47362793871187,0.8
0.9,-0.897742951335287,0.913931185271228,4.5238934211693,0.8
0.91,-0.90430882362358,0.913017710899266,4.57415890362674,0.8
0.92,-0.908578594534424,0.91210514954509,4.62442438608418,0.8
0.93,-0.910546072384463,0.911193500296141,4.67468986854161,0.8
0.94,-0.910210890140522,0.910282762240767,4.72495535099905,0.8
0.95,-0.907578494708546,0.909372934468231,4.77522083345649,0.8
0.96,-0.902660121566297,0.908464016068706,4.82548631591392,0.8
0.97,-0.89547275483313,0.907556006133273,4.87575179837136,0.8
0.98,-0.886039072906754,0.906648903753921,4.9260172808288,0.8
0.99,-0.874387379833061,0.905742708023549,4.97628276328623,0.8
1,-0.860551522610781,0.90483741803596,5.02654824574367,0.8
1.01,-0.844570794667847,0.903933032885864,5.07681372820111,0.8
1.02,-0.826489825780764,0.903029551668877,5.12707921065854,0.8
1.03,-0.806358458741988,0.902126973481516,5.17734469311598,0.8
1.04,-0.784231613113144,0.901225297421205,5.22761017557342,0.8
1.05,-0.760169136433854,0.900324522586266,5.27787565803085,0.8
1.06,-0.734235643286867,0.899424648075924,5.32814114048829,0.8
1.07,-0.706500342650048,0.898525672990306,5.37840662294573,0.8
1.08,-0.677036853994485,0.897627596430435,5.42867210540316,0.8
1.09,-0.64592301261548,0.896730417498235,5.4789375878606,0.8
1.1,-0.613240664709367,0.895834135296528,5.52920307031804,0.8
1.11,-0.57907545273403,0.894938748929031,5.57946855277547,0.8
1.12,-0.543516591614344,0.894044257500357,5.62973403523291,0.8
1.13,-0.506656636375881,0.893150660116016,5.67999951769035,0.8
1.14,-0.468591241810566,0.892257955882408,5.73026500014778,0.8
1.15,-0.429418914796994,0.891366143906831,5.78053048260522,0.8
1.16,-0.389240759915336,0.890475223297473,5.83079596506266,0.8
1.17,-0.348160219012446,0.889585193163411,5.88106144752009,0.8
1.18,-0.306282805386757,0.888696052614617,5.93132692997753,0.8
1.19,-0.263715833274759,0.88780780076195,5.98159241243497,0.8
1.2,-0.220568143331394,0.886920436717157,6.0318578948924,0.8
1.21,-0.176949824805396,0.886033959592876,6.08212337734984,0.8
1.22,-0.132971935117585,0.885148368502627,6.13238885980728,0.8
1.23,-0.0887462175552202,0.884263662560821,6.18265434226471,0.8
1.24,-0.0443848177989077,0.883379840882751,6.23291982472215,0.8
1.25,-2.16149401401536e-16,0.882496902584595,6.28318530717959,0.8
1.26,0.0442961368737949,0.881614846783416,6.33345078963702,0.8
1.27,0.0883919417090589,0.880733672597157,6.38371627209446,0.8
1.28,0.132176492221893,0.879853379144644,6.4339817545519,0.8
1.29,0.175539873531779,0.878973965545583,6.48424723700933,0.8
1.3,0.218373453635609,0.878095430920561,6.53451271946677,0.8
1.31,0.260570155092602,0.877217774391044,6.58477820192421,0.8
1.32,0.30202472224182,0.876340995079373,6.63504368438164,0.8
1.33,0.342633983286579,0.875465092108771,6.68530916683908,0.8
1.34,0.382297106594375,0.874590064603334,6.73557464929652,0.8
1.35,0.420915850576841,0.873715911688034,6.78584013175395,0.8
1.36,0.458394806531706,0.872842632488719,6.83610561421139,0.8
1.37,0.494641633847782,0.871970226132109,6.88637109666883,0.8
1.38,0.529567286994404,0.871098691745798,6.93663657912626,0.8
1.39,0.563086233738736,0.870228028458252,6.9869020615837,0.8
1.4,0.595116664057525,0.869358235398806,7.03716754404114,0.8
1.41,0.625580689234516,0.868489311697668,7.08743302649857,0.8
1.42,0.654404530660493,0.867621256485914,7.13769850895601,0.8
1.43,0.681518697879869,0.866754068895489,7.18796399141345,0.8
1.44,0.706858155455841,0.865887748059205,7.23822947387088,0.8
1.45,0.730362478255188,0.865022293110741,7.28849495632832,0.8
1.46,0.751975994783806,0.864157703184643,7.33876043878576,0.8
1.47,0.771647918235012,0.863293977416319,7.38902592124319,0.8
1.48,0.789332464944323,0.862431114942045,7.43929140370063,0.8
1.49,0.804988959976823,0.861569114898958,7.48955688615807,0.8
1.5,0.818581929606267,0.860707976425058,7.5398223686155,0.8
1.51,0.830081180478643,0.859847698659205,7.59008785107294,0.8
1.52,0.839461865286946,0.858988280741123,7.64035333353038,0.8
1.53,0.84670453481831,0.858129721811394,7.69061881598781,0.8
1.54,0.85179517626933,0.857272021011457,7.74088429844525,0.8
1.55,0.854725237760288,0.856415177483614,7.79114978090269,0.8
1.56,0.85549163901396,0.855559190371018,7.84141526336012,0.8
1.57,0.854096768199696,0.854704058817685,7.89168074581756,0.8
1.58,0.850548464978375,0.853849781968482,7.941946228275,0.8
1.59,0.844859989818618,0.852996358969132,7.99221171073243,0.8
1.6,0.837049979689148,0.852143788966211,8.04247719318987,0.8
1.61,0.827142390266363,0.851292071107151,8.09274267564731,0.8
1.62,0.815166424829996,0.850441204540233,8.14300815810474,0.8
1.63,0.80115645005293,0.84959118841459,8.19327364056218,0.8
1.64,0.785151898923972,0.848742021880207,8.24353912301962,0.8
1.65,0.767197161074364,0.847893704087916,8.29380460547705,0.8
1.66,0.747341460810074,0.8470462341894,8.34407008793449,0.8
1.67,0.725638723182347,0.846199611337188,8.39433557039193,0.8
1.68,0.702147428458532,0.845353834684659,8.44460105284936,0.8
1.69,0.676930455383755,0.844508903386034,8.4948665353068,0.8
1.7,0.650054913651521,0.843664816596384,8.54513201776424,0.8
1.71,0.621591966027776,0.84282157347162,8.59539750022167,0.8
1.72,0.591616640598106,0.8419791731685,8.64566298267911,0.8
1.73,0.560207633631861,0.841137614844623,8.69592846513655,0.8
1.74,0.527447103579574,0.840296897658431,8.74619394759398,0.8
1.75,0.493420456741517,0.839457020769207,8.79645943005142,0.8
1.76,0.458216125165071,0.838617983337074,8.84672491250886,0.8
1.77,0.421925337347188,0.837779784522994,8.89699039496629,0.8
1.78,0.384641882335179,0.836942423488768,8.94725587742373,0.8
1.79,0.346461867834559,0.836105899397036,8.99752135988117,0.8
1.8,0.307483472946611,0.835270211411272,9.0477868423386,0.8
1.81,0.2678066961706,0.83443535869579,9.09805232479604,0.8
1.82,0.227533099316312,0.833601340415735,9.14831780725348,0.8
1.83,0.186765547981571,0.832768155737091,9.19858328971091,0.8
1.84,0.145607949256799,0.831935803826672,9.24884877216835,0.8
1.85,0.104164987324332,0.831104283852126,9.29911425462579,0.8
1.86,0.062541857624181,0.830273594981933,9.34937973708323,0.8
1.87,0.0208440002602441,0.829443736385404,9.39964521954066,0.8
1.88,-0.0208231666785103,0.828614707232681,9.4499107019981,0.8
1.89,-0.0623545132084412,0.827786506694734,9.50017618445554,0.8
1.9,-0.103645462282659,0.826959133943362,9.55044166691297,0.8
1.91,-0.144592252697385,0.826132588151194,9.60070714937041,0.8
1.92,-0.18509219941338,0.825306868491682,9.65097263182784,0.8
1.93,-0.225043950640415,0.824481974139108,9.70123811428528,0.8
1.94,-0.264347741042197,0.823657904268577,9.75150359674272,0.8
1.95,-0.302905640430321,0.822834658056018,9.80176907920015,0.8
1.96,-0.340621797328361,0.822012234678187,9.85203456165759,0.8
1.97,-0.377402676801503,0.821190633312658,9.90230004411503,0.8
1.98,-0.413157291962732,0.820369853137831,9.95256552657246,0.8
1.99,-0.447797428583783,0.819549893332926,10.0028310090299,0.8
2,-0.481237862257548,0.818730753077982,10.0530964914873,0.8
2.01,-0.513396567578629,0.817912431553859,10.1033619739448,0.8
2.02,-0.544194918829865,0.817094927942237,10.1536274564022,0.8
2.03,-0.573557881685163,0.81627824142561,10.2038929388596,0.8
2.04,-0.601414195462628,0.815462371187293,10.2541584213171,0.8
2.05,-0.627696545486752,0.814647316411415,10.3044239037745,0.8
2.06,-0.652341725144291,0.813833076282921,10.354689386232,0.8
2.07,-0.675290787245291,0.813019649987571,10.4049548686894,0.8
2.08,-0.696489184328544,0.812207036711939,10.4552203511468,0.8
2.09,-0.715886897579303,0.811395235643411,10.5054858336043,0.8
2.1,-0.733438554056596,0.810584245970187,10.5557513160617,0.8
2.11,-0.74910353195751,0.809774066881276,10.6060167985191,0.8
2.12,-0.762846053676643,0.8089646975665,10.6562822809766,0.8
2.13,-0.77463526645012,0.808156137216488,10.706547763434,0.8
2.14,-0.784445310405451,0.807348385022681,10.7568132458915,0.8
2.15,-0.792255373870543,0.806541440177327,10.8070787283489,0.8
2.16,-0.798049735827728,0.80573530187348,10.8573442108063,0.8
2.17,-0.801817795431294,0.804929969305001,10.9076096932638,0.8
2.18,-0.803554088539857,0.80412544166656,10.9578751757212,0.8
2.19,-0.803258291247778,0.803321718153627,11.0081406581786,0.8
2.2,-0.800935210432681,0.802518797962478,11.0584061406361,0.8
2.21,-0.796594761368892,0.801716680290195,11.1086716230935,0.8
2.22,-0.790251932489132,0.800915364334659,11.1589371055509,0.8
2.23,-0.781926737409137,0.800114849294554,11.2092025880084,0.8
2.24,-0.771644154361736,0.799315134369365,11.2594680704658,0.8
2.25,-0.759434053218472,0.798516218759377,11.3097335529233,0.8
2.26,-0.745331110307786,0.797718101665674,11.3599990353807,0.8
2.27,-0.729374711269206,0.79692078229014,11.4102645178381,0.8
2.28,-0.711608842212692,0.796124259835454,11.4605300002956,0.8
2.29,-0.69208196948127,0.795328533505094,11.510795482753,0.8
2.3,-0.670846908343282,0.794533602503334,11.5610609652104,0.8
2.31,-0.647960680967868,0.793739466035243,11.6113264476679,0.8
2.32,-0.623484364063623,0.792946123306684,11.6615919301253,0.8
2.33,-0.597482926585753,0.792153573524314,11.7118574125827,0.8
2.34,-0.570025057941272,0.791361815895584,11.7621228950402,0.8
2.35,-0.541182987144935,0.790570849628736,11.8123883774976,0.8
2.36,-0.511032293400554,0.789780673932803,11.8626538599551,0.8
2.37,-0.479651708602996,0.78899128801761,11.9129193424125,0.8
2.38,-0.447122912275645,0.788202691093771,11.9631848248699,0.8
2.39,-0.413530319476093,0.787414882372688,12.0134503073274,0.8
2.4,-0.378960862219587,0.786627861066553,12.0637157897848,0.8
2.41,-0.343503764984957,0.785841626388345,12.1139812722422,0.8
2.42,-0.307250314881658,0.785056177551829,12.1642467546997,0.8
2.43,-0.270293627068733,0.784271513771556,12.2145122371571,0.8
2.44,-0.232728406027491,0.783487634262862,12.2647777196146,0.8
2.45,-0.194650703298789,0.782704538241868,12.315043202072,0.8
2.46,-0.156157672303649,0.781922224925477,12.3653086845294,0.8
2.47,-0.117347320871948,0.781140693531376,12.4155741669869,0.8
2.48,-0.0783182621085813,0.780359943278034,12.4658396494443,0.8
2.49,-0.0391694642293165,0.7795799733847,12.5161051319017,0.8
2.5,-3.81502354464739e-16,0.778800783071405,12.5663706143592,0.8
2.51,0.0390912035875871,0.778022371558957,12.6166360968166,0.8
2.52,0.0780056147716831,0.777244738068946,12.666901579274,0.8
2.53,0.116645344980318,0.776467881823738,12.7171670617315,0.8
2.54,0.154913394671887,0.775691802046476,12.7674325441889,0.8
2.55,0.192713896440127,0.774916497961081,12.8176980266464,0.8
2.56,0.229952354775209,0.774141968792248,12.8679635091038,0.8
2.57,0.266535881882378,0.773368213765449,12.9182289915612,0.8
2.58,0.302373428970627,0.772595232106928,12.9684944740187,0.8
2.59,0.337376012436588,0.771823023043704,13.0187599564761,0.8
2.6,0.371456934382822,0.771051585803566,13.0690254389335,0.8
2.61,0.404531996925095,0.770280919615079,13.119290921391,0.8
2.62,0.436519709760051,0.769511023707576,13.1695564038484,0.8
2.63,0.467341490482689,0.76874189731116,13.2198218863058,0.8
2.64,0.49692185716246,0.767973539656706,13.2700873687633,0.8
2.65,0.525188612707242,0.767205949975856,13.3203528512207,0.8
2.66,0.552073020566198,0.766439127501019,13.3706183336782,0.8
2.67,0.577509971345212,0.765673071465374,13.4208838161356,0.8
2.68,0.601438139932471,0.764907781102864,13.471149298593,0.8
2.69,0.62380013275644,0.764143255648199,13.5214147810505,0.8
2.7,0.644542624824213,0.763379494336853,13.5716802635079,0.8
2.71,0.663616486214678,0.762616496405065,13.6219457459653,0.8
2.72,0.680976897728249,0.761854261089838,13.6722112284228,0.8
2.73,0.696583455422828,0.761092787628934,13.7224767108802,0.8
2.74,0.710400263794341,0.760332075260882,13.7727421933377,0.8
2.75,0.722396017389252,0.759572123224968,13.8230076757951,0.8
2.76,0.732544070666167,0.758812930761241,13.8732731582525,0.8
2.77,0.740822495953617,0.758054497110508,13.92353864071,0.8
2.78,0.74721412938149,0.757296821514336,13.9738041231674,0.8
2.79,0.751706604694183,0.756539903215047,14.0240696056248,0.8
2.8,0.754292374884336,0.755783741455725,14.0743350880823,0.8
2.81,0.754968721616839,0.755028335480208,14.1246005705397,0.8
2.82,0.753737752443745,0.754273684533089,14.1748660529971,0.8
2.83,0.750606385841498,0.753519787859717,14.2251315354546,0.8
2.84,0.745586324132584,0.752766644706196,14.275397017912,0.8
2.85,0.738694014384171,0.752014254319383,14.3256625003695,0.8
2.86,0.729950597406484,0.751262615946886,14.3759279828269,0.8
2.87,0.71938184500343,0.750511728837068,14.4261934652843,0.8
2.88,0.707018085657381,0.749761592239041,14.4764589477418,0.8
2.89,0.692894118858819,0.749012205402669,14.5267244301992,0.8
2.9,0.677049118319822,0.748263567578565,14.5769899126566,0.8
2.91,0.659526524337937,0.747515678018091,14.6272553951141,0.8
2.92,0.640373925603862,0.746768535973357,14.6775208775715,0.8
2.93,0.619642930772394,0.746022140697221,14.727786360029,0.8
2.94,0.597389030141343,0.745276491443289,14.7780518424864,0.8
2.95,0.573671447807364,0.744531587465909,14.8283173249438,0.8
2.96,0.548552984690981,0.74378742802018,14.8785828074013,0.8
2.97,0.522099852845333,0.74304401236194,14.9288482898587,0.8
2.98,0.494381501484363,0.742301339747774,14.9791137723161,0.8
2.99,0.465470435186189,0.74155940943501,15.0293792547736,0.8
3,0.435442024746265,0.740818220681718,15.079644737231,0.8
3.01,0.40437431117249,0.740077772746708,15.1299102196884,0.8
3.02,0.372347803330854,0.739338064889532,15.1801757021459,0.8
3.03,0.339445269765103,0.738599096370482,15.2304411846033,0.8
3.04,0.305751525227672,0.737860866450591,15.2807066670608,0.8
3.05,0.271353212471337,0.737123374391628,15.3309721495182,0.8
3.06,0.236338579861969,0.7363866194561,15.3812376319756,0.8
3.07,0.200797255382118,0.735650600907253,15.4315031144331,0.8
3.08,0.164820017603251,0.734915318009069,15.4817685968905,0.8
3.09,0.128498564210822,0.734180770026263,15.5320340793479,0.8
3.1,0.0919252786714868,0.733446956224289,15.5822995618054,0.8
3.11,0.055192995635228,0.732713875869332,15.6325650442628,0.8
3.12,0.0183947656671381,0.731981528228313,15.6828305267202,0.8
3.13,-0.0183763800957879,0.731249912568882,15.7330960091777,0.8
3.14,-0.0550276647686194,0.730519028159425,15.7833614916351,0.8
3.15,-0.0914667994313934,0.729788874269057,15.8336269740926,0.8
